Time(s), Twind(°C), TMotCase(°C), Flat_i(N), Flat_o(N), Flat_r(N), Frad_i(N), Frad_o(N), Frad_r(N)
0.000000, 37.909584, 34.995625, 0.000000, 0.000000, 0.000000, 0.000000, 0.000000, 0.000000, 0.000000
2.545722, 37.821762, 34.989792, 0.000000, 0.000000, 0.000000, 0.000000, 0.000000, 0.000000, 15.000000
5.188962, 37.736412, 34.982582, 0.000000, 0.000000, 0.000000, 0.000000, 0.000000, 0.000000, 30.000000
7.936244, 37.653416, 34.974072, 0.000000, 0.000000, 0.000000, 0.000000, 0.000000, 0.000000, 45.000000
10.794502, 37.572662, 34.964329, 0.000000, 0.000000, 0.000000, 0.000000, 0.000000, 0.000000, 60.000000
13.773130, 37.494049, 34.953419, 0.000000, 0.000000, 0.000000, 0.000000, 0.000000, 0.000000, 75.000000
16.883942, 37.417477, 34.941406, 0.000000, 0.000000, 0.000000, 0.000000, 0.000000, 0.000000, 90.000000
20.140907, 37.342850, 34.928352, 0.000000, 0.000000, 0.000000, 0.000000, 0.000000, 0.000000, 105.000000
23.551432, 37.270081, 34.914310, 0.000000, 0.000000, 0.000000, 0.000000, 0.000000, 0.000000, 120.000000
27.049585, 37.199081, 34.899338, 0.000000, 0.000000, 0.000000, 0.000000, 0.000000, 0.000000, 135.000000
30.543411, 37.129768, 34.883488, 0.000000, 0.000000, 0.000000, 0.000000, 0.000000, 0.000000, 150.000000
33.915058, 37.062069, 34.866806, 0.000000, 0.000000, 0.000000, 0.000000, 0.000000, 0.000000, 165.000000
37.081249, 36.995907, 34.849339, 0.000000, 0.000000, 0.000000, 0.000000, 0.000000, 0.000000, 180.000000
40.021313, 36.931213, 34.831135, 0.000000, 0.000000, 0.000000, 0.000000, 0.000000, 0.000000, 195.000000
42.736660, 36.867920, 34.812233, 0.000000, 0.000000, 0.000000, 0.000000, 0.000000, 0.000000, 210.000000
45.250790, 36.805965, 34.792675, 0.000000, 0.000000, 0.000000, 0.000000, 0.000000, 0.000000, 225.000000
47.585621, 36.745289, 34.772495, 0.000000, 0.000000, 0.000000, 0.000000, 0.000000, 0.000000, 240.000000
49.765675, 36.685833, 34.751732, 0.000000, 0.000000, 0.000000, 0.000000, 0.000000, 0.000000, 255.000000
51.811596, 36.627541, 34.730419, 0.000000, 0.000000, 0.000000, 0.000000, 0.000000, 0.000000, 270.000000
53.746044, 36.570362, 34.708591, 0.000000, 0.000000, 0.000000, 0.000000, 0.000000, 0.000000, 285.000000
55.587032, 36.514252, 34.686279, 0.000000, 0.000000, 0.000000, 0.000000, 0.000000, 0.000000, 300.000000
57.352520, 36.459160, 34.663509, 0.000000, 0.000000, 0.000000, 0.000000, 0.000000, 0.000000, 315.000000
59.057144, 36.405041, 34.640312, 0.000000, 0.000000, 0.000000, 0.000000, 0.000000, 0.000000, 330.000000
60.717190, 36.351852, 34.616711, 0.000000, 0.000000, 0.000000, 0.000000, 0.000000, 0.000000, 345.000000
62.346542, 36.299557, 34.592735, 0.000000, 0.000000, 0.000000, 0.000000, 0.000000, 0.000000, 360.000000
63.956112, 36.248116, 34.568405, 0.000000, 0.000000, 0.000000, 0.000000, 0.000000, 0.000000, 375.000000
65.554543, 36.197491, 34.543747, 0.000000, 0.000000, 0.000000, 0.000000, 0.000000, 0.000000, 390.000000
67.144180, 36.147648, 34.518780, 0.000000, 0.000000, 0.000000, 0.000000, 0.000000, 0.000000, 405.000000
68.726692, 36.098557, 34.493523, 0.000000, 0.000000, 0.000000, 0.000000, 0.000000, 0.000000, 420.000000
70.304092, 36.050182, 34.467999, 0.000000, 0.000000, 0.000000, 0.000000, 0.000000, 0.000000, 435.000000
71.878601, 36.002499, 34.442226, 0.000000, 0.000000, 0.000000, 0.000000, 0.000000, 0.000000, 450.000000
73.452599, 35.955475, 34.416222, 0.000000, 0.000000, 0.000000, 0.000000, 0.000000, 0.000000, 465.000000
75.028320, 35.909084, 34.389999, 0.000000, 0.000000, 0.000000, 0.000000, 0.000000, 0.000000, 480.000000
76.607048, 35.863300, 34.363579, 0.000000, 0.000000, 0.000000, 0.000000, 0.000000, 0.000000, 495.000000
78.189926, 35.818100, 34.336971, 0.000000, 0.000000, 0.000000, 0.000000, 0.000000, 0.000000, 510.000000
79.778717, 35.773460, 34.310192, 0.000000, 0.000000, 0.000000, 0.000000, 0.000000, 0.000000, 525.000000
81.375267, 35.729359, 34.283257, 0.000000, 0.000000, 0.000000, 0.000000, 0.000000, 0.000000, 540.000000
82.981384, 35.685776, 34.256176, 0.000000, 0.000000, 0.000000, 0.000000, 0.000000, 0.000000, 555.000000
84.598763, 35.642689, 34.228966, 0.000000, 0.000000, 0.000000, 0.000000, 0.000000, 0.000000, 570.000000
86.228760, 35.600082, 34.201633, 0.000000, 0.000000, 0.000000, 0.000000, 0.000000, 0.000000, 585.000000
87.872993, 35.557934, 34.174191, 0.000000, 0.000000, 0.000000, 0.000000, 0.000000, 0.000000, 600.000000
89.534645, 35.516232, 34.146648, 0.000000, 0.000000, 0.000000, 0.000000, 0.000000, 0.000000, 615.000000
91.217575, 35.474953, 34.119019, 0.000000, 0.000000, 0.000000, 0.000000, 0.000000, 0.000000, 630.000000
92.931648, 35.434086, 34.091309, 0.000000, 0.000000, 0.000000, 0.000000, 0.000000, 0.000000, 645.000000
94.688988, 35.393616, 34.063526, 0.000000, 0.000000, 0.000000, 0.000000, 0.000000, 0.000000, 660.000000
96.503128, 35.353527, 34.035683, 0.000000, 0.000000, 0.000000, 0.000000, 0.000000, 0.000000, 675.000000
98.387306, 35.313808, 34.007782, 0.000000, 0.000000, 0.000000, 0.000000, 0.000000, 0.000000, 690.000000
100.346252, 35.274448, 33.979836, 0.000000, 0.000000, 0.000000, 0.000000, 0.000000, 0.000000, 705.000000
102.383263, 35.235432, 33.951851, 0.000000, 0.000000, 0.000000, 0.000000, 0.000000, 0.000000, 720.000000
104.496658, 35.196747, 33.923832, 0.000000, 0.000000, 0.000000, 0.000000, 0.000000, 0.000000, 735.000000
106.682037, 35.158382, 33.895786, 0.000000, 0.000000, 0.000000, 0.000000, 0.000000, 0.000000, 750.000000
108.917801, 35.120331, 33.867722, 0.000000, 0.000000, 0.000000, 0.000000, 0.000000, 0.000000, 765.000000
111.178398, 35.082581, 33.839642, 0.000000, 0.000000, 0.000000, 0.000000, 0.000000, 0.000000, 780.000000
113.445374, 35.045120, 33.811550, 0.000000, 0.000000, 0.000000, 0.000000, 0.000000, 0.000000, 795.000000
115.705711, 35.007942, 33.783455, 0.000000, 0.000000, 0.000000, 0.000000, 0.000000, 0.000000, 810.000000
117.964653, 34.971039, 33.755363, 0.000000, 0.000000, 0.000000, 0.000000, 0.000000, 0.000000, 825.000000
120.227142, 36.909256, 33.727276, 0.000000, 0.000000, 0.000000, 0.000000, 0.000000, 0.000000, 840.000000
122.287552, 37.561646, 33.733147, 0.000000, 0.000000, 0.000000, 0.000000, 0.000000, 0.000000, 855.000000
124.109413, 37.446259, 33.750099, 0.000000, 0.000000, 0.000000, 0.000000, 0.000000, 0.000000, 870.000000
125.868706, 37.334862, 33.764683, 0.000000, 0.000000, 0.000000, 0.000000, 0.000000, 0.000000, 885.000000
127.629402, 37.227261, 33.777020, 0.000000, 0.000000, 0.000000, 0.000000, 0.000000, 0.000000, 900.000000
129.387695, 37.123276, 33.787224, 0.000000, 0.000000, 0.000000, 0.000000, 0.000000, 0.000000, 915.000000
131.139160, 37.022732, 33.795410, 0.000000, 0.000000, 0.000000, 0.000000, 0.000000, 0.000000, 930.000000
132.880127, 36.925465, 33.801682, 0.000000, 0.000000, 0.000000, 0.000000, 0.000000, 0.000000, 945.000000
134.607666, 36.831318, 33.806137, 0.000000, 0.000000, 0.000000, 0.000000, 0.000000, 0.000000, 960.000000
136.321777, 36.740143, 33.808872, 0.000000, 0.000000, 0.000000, 0.000000, 0.000000, 0.000000, 975.000000
138.022781, 36.651798, 33.809978, 0.000000, 0.000000, 0.000000, 0.000000, 0.000000, 0.000000, 990.000000
139.711914, 36.566151, 33.809540, 0.000000, 0.000000, 0.000000, 0.000000, 0.000000, 0.000000, 1005.000000
141.390411, 36.483070, 33.807640, 0.000000, 0.000000, 0.000000, 0.000000, 0.000000, 0.000000, 1020.000000
143.059784, 36.402435, 33.804356, 0.000000, 0.000000, 0.000000, 0.000000, 0.000000, 0.000000, 1035.000000
144.721420, 36.324131, 33.799759, 0.000000, 0.000000, 0.000000, 0.000000, 0.000000, 0.000000, 1050.000000
146.376526, 36.248051, 33.793922, 0.000000, 0.000000, 0.000000, 0.000000, 0.000000, 0.000000, 1065.000000
148.026077, 36.174088, 33.786911, 0.000000, 0.000000, 0.000000, 0.000000, 0.000000, 0.000000, 1080.000000
149.670532, 36.102142, 33.778786, 0.000000, 0.000000, 0.000000, 0.000000, 0.000000, 0.000000, 1095.000000
151.310287, 36.032120, 33.769611, 0.000000, 0.000000, 0.000000, 0.000000, 0.000000, 0.000000, 1110.000000
152.945404, 35.963932, 33.759441, 0.000000, 0.000000, 0.000000, 0.000000, 0.000000, 0.000000, 1125.000000
154.575821, 35.897491, 33.748329, 0.000000, 0.000000, 0.000000, 0.000000, 0.000000, 0.000000, 1140.000000
156.200928, 35.832718, 33.736328, 0.000000, 0.000000, 0.000000, 0.000000, 0.000000, 0.000000, 1155.000000
157.819946, 35.769535, 33.723488, 0.000000, 0.000000, 0.000000, 0.000000, 0.000000, 0.000000, 1170.000000
159.432480, 35.707870, 33.709854, 0.000000, 0.000000, 0.000000, 0.000000, 0.000000, 0.000000, 1185.000000
161.038269, 35.647652, 33.695469, 0.000000, 0.000000, 0.000000, 0.000000, 0.000000, 0.000000, 1200.000000
162.641571, 35.588814, 33.680378, 0.000000, 0.000000, 0.000000, 0.000000, 0.000000, 0.000000, 1215.000000
164.249298, 35.531296, 33.664619, 0.000000, 0.000000, 0.000000, 0.000000, 0.000000, 0.000000, 1230.000000
165.884384, 35.475037, 33.648232, 0.000000, 0.000000, 0.000000, 0.000000, 0.000000, 0.000000, 1245.000000
167.575256, 35.419979, 33.631248, 0.000000, 0.000000, 0.000000, 0.000000, 0.000000, 0.000000, 1260.000000
169.364365, 36.386513, 33.613708, 0.000000, 0.000000, 0.000000, 0.000000, 0.000000, 0.000000, 1275.000000
171.215408, 37.598885, 33.613182, 0.000000, 0.000000, 0.000000, 0.000000, 0.000000, 0.000000, 1290.000000
173.060272, 38.960182, 33.633511, 0.000000, 0.000000, 0.000000, 0.000000, 0.000000, 0.000000, 1305.000000
174.904358, 40.319118, 33.676777, 0.000000, 0.000000, 0.000000, 0.000000, 0.000000, 0.000000, 1320.000000
176.766830, 41.730350, 33.742420, 0.000000, 0.000000, 0.000000, 0.000000, 0.000000, 0.000000, 1335.000000
178.659286, 43.191795, 33.830826, 0.000000, 0.000000, 0.000000, 0.000000, 0.000000, 0.000000, 1350.000000
180.585312, 44.721752, 33.942341, 0.000000, 0.000000, 0.000000, 0.000000, 0.000000, 0.000000, 1365.000000
182.546249, 46.320915, 34.077618, 0.000000, 0.000000, 0.000000, 0.000000, 0.000000, 0.000000, 1380.000000
184.533859, 46.838566, 34.237301, 0.000000, 0.000000, 0.000000, 0.000000, 0.000000, 0.000000, 1395.000000
186.595078, 46.458782, 34.402245, 0.000000, 0.000000, 0.000000, 0.000000, 0.000000, 0.000000, 1410.000000
188.914886, 46.095413, 34.556904, 0.000000, 0.000000, 0.000000, 0.000000, 0.000000, 0.000000, 1425.000000
191.787628, 45.747658, 34.701790, 0.000000, 0.000000, 0.000000, 0.000000, 0.000000, 0.000000, 1440.000000
195.461487, 45.414749, 34.837399, 0.000000, 0.000000, 0.000000, 0.000000, 0.000000, 0.000000, 1455.000000
200.286438, 45.095963, 34.964191, 0.000000, 0.000000, 0.000000, 0.000000, 0.000000, 0.000000, 1470.000000
205.776688, 44.790604, 35.082615, 0.000000, 0.000000, 0.000000, 0.000000, 0.000000, 0.000000, 1485.000000
210.653046, 44.498016, 35.193092, 0.000000, 0.000000, 0.000000, 0.000000, 0.000000, 0.000000, 1500.000000
214.599731, 44.217579, 35.296024, 0.000000, 0.000000, 0.000000, 0.000000, 0.000000, 0.000000, 1515.000000
217.779999, 43.948696, 35.391788, 0.000000, 0.000000, 0.000000, 0.000000, 0.000000, 0.000000, 1530.000000
220.538666, 43.690804, 35.480747, 0.000000, 0.000000, 0.000000, 0.000000, 0.000000, 0.000000, 1545.000000
223.042816, 43.443363, 35.563248, 0.000000, 0.000000, 0.000000, 0.000000, 0.000000, 0.000000, 1560.000000
225.413422, 43.205868, 35.639614, 0.000000, 0.000000, 0.000000, 0.000000, 0.000000, 0.000000, 1575.000000
227.726288, 42.977833, 35.710155, 0.000000, 0.000000, 0.000000, 0.000000, 0.000000, 0.000000, 1590.000000
230.018280, 42.758797, 35.775169, 0.000000, 0.000000, 0.000000, 0.000000, 0.000000, 0.000000, 1605.000000
232.315689, 42.548321, 35.834938, 0.000000, 0.000000, 0.000000, 0.000000, 0.000000, 0.000000, 1620.000000
234.631073, 42.345989, 35.889725, 0.000000, 0.000000, 0.000000, 0.000000, 0.000000, 0.000000, 1635.000000
236.977722, 42.151405, 35.939785, 0.000000, 0.000000, 0.000000, 0.000000, 0.000000, 0.000000, 1650.000000
