Time(s), Twind(°C), TMotCase(°C), Flat_i(N), Flat_o(N), Flat_r(N), Frad_i(N), Frad_o(N), Frad_r(N)
0.000000, 37.909584, 34.995625, 0.000000, 0.000000, 0.000000, 0.000000, 0.000000, 0.000000, 0.000000
3.067916, 37.821762, 34.989792, 0.000000, 0.000000, 0.000000, 0.000000, 0.000000, 0.000000, 15.000000
6.273515, 37.736412, 34.982582, 0.000000, 0.000000, 0.000000, 0.000000, 0.000000, 0.000000, 30.000000
9.536640, 37.653416, 34.974072, 0.000000, 0.000000, 0.000000, 0.000000, 0.000000, 0.000000, 45.000000
12.762648, 37.572662, 34.964329, 0.000000, 0.000000, 0.000000, 0.000000, 0.000000, 0.000000, 60.000000
15.866357, 37.494049, 34.953419, 0.000000, 0.000000, 0.000000, 0.000000, 0.000000, 0.000000, 75.000000
18.789856, 37.417477, 34.941406, 0.000000, 0.000000, 0.000000, 0.000000, 0.000000, 0.000000, 90.000000
21.540167, 37.342850, 34.928352, 0.000000, 0.000000, 0.000000, 0.000000, 0.000000, 0.000000, 105.000000
24.130909, 37.270081, 34.914310, 0.000000, 0.000000, 0.000000, 0.000000, 0.000000, 0.000000, 120.000000
26.582476, 37.199081, 34.899338, 0.000000, 0.000000, 0.000000, 0.000000, 0.000000, 0.000000, 135.000000
28.911081, 37.129768, 34.883488, 0.000000, 0.000000, 0.000000, 0.000000, 0.000000, 0.000000, 150.000000
31.129992, 37.062069, 34.866806, 0.000000, 0.000000, 0.000000, 0.000000, 0.000000, 0.000000, 165.000000
33.251789, 36.995907, 34.849339, 0.000000, 0.000000, 0.000000, 0.000000, 0.000000, 0.000000, 180.000000
35.298203, 36.931213, 34.831135, 0.000000, 0.000000, 0.000000, 0.000000, 0.000000, 0.000000, 195.000000
37.286945, 36.867920, 34.812233, 0.000000, 0.000000, 0.000000, 0.000000, 0.000000, 0.000000, 210.000000
39.228813, 36.805965, 34.792675, 0.000000, 0.000000, 0.000000, 0.000000, 0.000000, 0.000000, 225.000000
41.131409, 36.745289, 34.772495, 0.000000, 0.000000, 0.000000, 0.000000, 0.000000, 0.000000, 240.000000
42.999596, 36.685833, 34.751732, 0.000000, 0.000000, 0.000000, 0.000000, 0.000000, 0.000000, 255.000000
44.839142, 36.627541, 34.730419, 0.000000, 0.000000, 0.000000, 0.000000, 0.000000, 0.000000, 270.000000
46.661495, 36.570362, 34.708591, 0.000000, 0.000000, 0.000000, 0.000000, 0.000000, 0.000000, 285.000000
48.477459, 36.514252, 34.686279, 0.000000, 0.000000, 0.000000, 0.000000, 0.000000, 0.000000, 300.000000
50.286907, 36.459160, 34.663509, 0.000000, 0.000000, 0.000000, 0.000000, 0.000000, 0.000000, 315.000000
52.089069, 36.405041, 34.640312, 0.000000, 0.000000, 0.000000, 0.000000, 0.000000, 0.000000, 330.000000
53.889992, 36.351852, 34.616711, 0.000000, 0.000000, 0.000000, 0.000000, 0.000000, 0.000000, 345.000000
55.694088, 36.299557, 34.592735, 0.000000, 0.000000, 0.000000, 0.000000, 0.000000, 0.000000, 360.000000
57.499104, 36.248116, 34.568405, 0.000000, 0.000000, 0.000000, 0.000000, 0.000000, 0.000000, 375.000000
59.303780, 36.451347, 34.543747, 0.000000, 0.000000, 0.000000, 0.000000, 0.000000, 0.000000, 390.000000
61.101799, 36.791370, 34.523144, 0.000000, 0.000000, 0.000000, 0.000000, 0.000000, 0.000000, 405.000000
62.871956, 37.005276, 34.508854, 0.000000, 0.000000, 0.000000, 0.000000, 0.000000, 0.000000, 420.000000
64.616562, 37.386059, 34.498569, 0.000000, 0.000000, 0.000000, 0.000000, 0.000000, 0.000000, 435.000000
66.337082, 37.299034, 34.495064, 0.000000, 0.000000, 0.000000, 0.000000, 0.000000, 0.000000, 450.000000
68.049683, 37.214527, 34.490143, 0.000000, 0.000000, 0.000000, 0.000000, 0.000000, 0.000000, 465.000000
69.783844, 37.132420, 34.483879, 0.000000, 0.000000, 0.000000, 0.000000, 0.000000, 0.000000, 480.000000
71.537766, 37.052597, 34.476349, 0.000000, 0.000000, 0.000000, 0.000000, 0.000000, 0.000000, 495.000000
73.309151, 36.974953, 34.467617, 0.000000, 0.000000, 0.000000, 0.000000, 0.000000, 0.000000, 510.000000
75.096451, 36.899384, 34.457748, 0.000000, 0.000000, 0.000000, 0.000000, 0.000000, 0.000000, 525.000000
76.898941, 36.825794, 34.446808, 0.000000, 0.000000, 0.000000, 0.000000, 0.000000, 0.000000, 540.000000
78.722275, 36.754093, 34.434849, 0.000000, 0.000000, 0.000000, 0.000000, 0.000000, 0.000000, 555.000000
80.572876, 36.684193, 34.421932, 0.000000, 0.000000, 0.000000, 0.000000, 0.000000, 0.000000, 570.000000
82.456520, 36.616013, 34.408108, 0.000000, 0.000000, 0.000000, 0.000000, 0.000000, 0.000000, 585.000000
84.379486, 36.549469, 34.393425, 0.000000, 0.000000, 0.000000, 0.000000, 0.000000, 0.000000, 600.000000
86.348503, 36.484489, 34.377934, 0.000000, 0.000000, 0.000000, 0.000000, 0.000000, 0.000000, 615.000000
88.370979, 36.421001, 34.361679, 0.000000, 0.000000, 0.000000, 0.000000, 0.000000, 0.000000, 630.000000
90.453400, 36.358936, 34.344704, 0.000000, 0.000000, 0.000000, 0.000000, 0.000000, 0.000000, 645.000000
92.603027, 36.298229, 34.327045, 0.000000, 0.000000, 0.000000, 0.000000, 0.000000, 0.000000, 660.000000
94.826889, 36.238819, 34.308746, 0.000000, 0.000000, 0.000000, 0.000000, 0.000000, 0.000000, 675.000000
97.133057, 36.180649, 34.289845, 0.000000, 0.000000, 0.000000, 0.000000, 0.000000, 0.000000, 690.000000
99.524071, 36.123661, 34.270374, 0.000000, 0.000000, 0.000000, 0.000000, 0.000000, 0.000000, 705.000000
101.997421, 36.067806, 34.250366, 0.000000, 0.000000, 0.000000, 0.000000, 0.000000, 0.000000, 720.000000
104.534164, 36.013031, 34.229855, 0.000000, 0.000000, 0.000000, 0.000000, 0.000000, 0.000000, 735.000000
107.113152, 35.959290, 34.208870, 0.000000, 0.000000, 0.000000, 0.000000, 0.000000, 0.000000, 750.000000
109.723473, 35.906536, 34.187439, 0.000000, 0.000000, 0.000000, 0.000000, 0.000000, 0.000000, 765.000000
112.355530, 35.854725, 34.165588, 0.000000, 0.000000, 0.000000, 0.000000, 0.000000, 0.000000, 780.000000
115.018166, 35.803818, 34.143345, 0.000000, 0.000000, 0.000000, 0.000000, 0.000000, 0.000000, 795.000000
117.725754, 35.753773, 34.120735, 0.000000, 0.000000, 0.000000, 0.000000, 0.000000, 0.000000, 810.000000
120.498238, 35.704556, 34.097778, 0.000000, 0.000000, 0.000000, 0.000000, 0.000000, 0.000000, 825.000000
123.351555, 35.656128, 34.074497, 0.000000, 0.000000, 0.000000, 0.000000, 0.000000, 0.000000, 840.000000
126.276939, 35.608459, 34.050915, 0.000000, 0.000000, 0.000000, 0.000000, 0.000000, 0.000000, 855.000000
129.263718, 35.561516, 34.027050, 0.000000, 0.000000, 0.000000, 0.000000, 0.000000, 0.000000, 870.000000
132.294495, 35.659996, 34.002922, 0.000000, 0.000000, 0.000000, 0.000000, 0.000000, 0.000000, 885.000000
135.305588, 35.846348, 33.981037, 0.000000, 0.000000, 0.000000, 0.000000, 0.000000, 0.000000, 900.000000
138.184921, 36.078804, 33.962856, 0.000000, 0.000000, 0.000000, 0.000000, 0.000000, 0.000000, 915.000000
140.877396, 36.276154, 33.949085, 0.000000, 0.000000, 0.000000, 0.000000, 0.000000, 0.000000, 930.000000
143.409500, 37.641106, 33.939018, 0.000000, 0.000000, 0.000000, 0.000000, 0.000000, 0.000000, 945.000000
145.705841, 38.642220, 33.952648, 0.000000, 0.000000, 0.000000, 0.000000, 0.000000, 0.000000, 960.000000
147.759903, 38.500881, 33.983177, 0.000000, 0.000000, 0.000000, 0.000000, 0.000000, 0.000000, 975.000000
149.728683, 38.364723, 34.010582, 0.000000, 0.000000, 0.000000, 0.000000, 0.000000, 0.000000, 990.000000
151.705414, 38.233494, 34.035019, 0.000000, 0.000000, 0.000000, 0.000000, 0.000000, 0.000000, 1005.000000
153.693115, 38.106956, 34.056644, 0.000000, 0.000000, 0.000000, 0.000000, 0.000000, 0.000000, 1020.000000
155.693253, 37.984886, 34.075600, 0.000000, 0.000000, 0.000000, 0.000000, 0.000000, 0.000000, 1035.000000
157.706711, 37.867065, 34.092026, 0.000000, 0.000000, 0.000000, 0.000000, 0.000000, 0.000000, 1050.000000
159.730698, 37.753292, 34.106052, 0.000000, 0.000000, 0.000000, 0.000000, 0.000000, 0.000000, 1065.000000
161.762115, 37.643368, 34.117805, 0.000000, 0.000000, 0.000000, 0.000000, 0.000000, 0.000000, 1080.000000
163.798584, 37.537113, 34.127399, 0.000000, 0.000000, 0.000000, 0.000000, 0.000000, 0.000000, 1095.000000
165.837875, 37.434349, 34.134949, 0.000000, 0.000000, 0.000000, 0.000000, 0.000000, 0.000000, 1110.000000
167.879303, 37.334911, 34.140560, 0.000000, 0.000000, 0.000000, 0.000000, 0.000000, 0.000000, 1125.000000
169.921829, 37.238640, 34.144333, 0.000000, 0.000000, 0.000000, 0.000000, 0.000000, 0.000000, 1140.000000
171.963882, 37.145382, 34.146366, 0.000000, 0.000000, 0.000000, 0.000000, 0.000000, 0.000000, 1155.000000
174.004379, 37.054996, 34.146748, 0.000000, 0.000000, 0.000000, 0.000000, 0.000000, 0.000000, 1170.000000
176.042679, 36.967346, 34.145569, 0.000000, 0.000000, 0.000000, 0.000000, 0.000000, 0.000000, 1185.000000
178.078049, 36.882301, 34.142910, 0.000000, 0.000000, 0.000000, 0.000000, 0.000000, 0.000000, 1200.000000
180.110458, 36.799740, 34.138847, 0.000000, 0.000000, 0.000000, 0.000000, 0.000000, 0.000000, 1215.000000
182.139938, 36.719543, 34.133461, 0.000000, 0.000000, 0.000000, 0.000000, 0.000000, 0.000000, 1230.000000
184.166580, 36.641602, 34.126816, 0.000000, 0.000000, 0.000000, 0.000000, 0.000000, 0.000000, 1245.000000
186.190430, 36.565811, 34.118984, 0.000000, 0.000000, 0.000000, 0.000000, 0.000000, 0.000000, 1260.000000
188.211441, 36.492065, 34.110027, 0.000000, 0.000000, 0.000000, 0.000000, 0.000000, 0.000000, 1275.000000
190.229370, 36.420273, 34.100006, 0.000000, 0.000000, 0.000000, 0.000000, 0.000000, 0.000000, 1290.000000
192.244278, 36.350342, 34.088978, 0.000000, 0.000000, 0.000000, 0.000000, 0.000000, 0.000000, 1305.000000
194.256195, 36.282188, 34.077000, 0.000000, 0.000000, 0.000000, 0.000000, 0.000000, 0.000000, 1320.000000
196.265869, 36.215729, 34.064125, 0.000000, 0.000000, 0.000000, 0.000000, 0.000000, 0.000000, 1335.000000
198.274017, 36.150883, 34.050400, 0.000000, 0.000000, 0.000000, 0.000000, 0.000000, 0.000000, 1350.000000
200.281219, 36.087578, 34.035873, 0.000000, 0.000000, 0.000000, 0.000000, 0.000000, 0.000000, 1365.000000
202.287750, 36.387417, 34.020588, 0.000000, 0.000000, 0.000000, 0.000000, 0.000000, 0.000000, 1380.000000
204.253738, 36.677361, 34.010807, 0.000000, 0.000000, 0.000000, 0.000000, 0.000000, 0.000000, 1395.000000
206.147018, 36.596992, 34.006233, 0.000000, 0.000000, 0.000000, 0.000000, 0.000000, 0.000000, 1410.000000
208.004944, 38.025974, 34.000381, 0.000000, 0.000000, 0.000000, 0.000000, 0.000000, 0.000000, 1425.000000
209.784668, 39.480778, 34.019230, 0.000000, 0.000000, 0.000000, 0.000000, 0.000000, 0.000000, 1440.000000
211.434372, 39.797794, 34.062656, 0.000000, 0.000000, 0.000000, 0.000000, 0.000000, 0.000000, 1455.000000
213.005661, 39.986706, 34.110542, 0.000000, 0.000000, 0.000000, 0.000000, 0.000000, 0.000000, 1470.000000
214.544296, 40.466419, 34.160587, 0.000000, 0.000000, 0.000000, 0.000000, 0.000000, 0.000000, 1485.000000
216.054596, 40.947823, 34.217735, 0.000000, 0.000000, 0.000000, 0.000000, 0.000000, 0.000000, 1500.000000
217.548569, 41.236359, 34.281860, 0.000000, 0.000000, 0.000000, 0.000000, 0.000000, 0.000000, 1515.000000
219.052979, 42.745232, 34.349483, 0.000000, 0.000000, 0.000000, 0.000000, 0.000000, 0.000000, 1530.000000
220.562134, 44.088303, 34.441505, 0.000000, 0.000000, 0.000000, 0.000000, 0.000000, 0.000000, 1545.000000
220.562134, 45.432167, 34.554516, 0.000000, 0.000000, 0.000000, 0.000000, 0.000000, 0.000000, 1560.000000
222.077255, 46.056404, 34.688057, 0.000000, 0.000000, 0.000000, 0.000000, 0.000000, 0.000000, 1575.000000
223.627533, 46.809036, 34.829285, 0.000000, 0.000000, 0.000000, 0.000000, 0.000000, 0.000000, 1590.000000
225.231796, 47.492615, 34.980232, 0.000000, 0.000000, 0.000000, 0.000000, 0.000000, 0.000000, 1605.000000
226.899750, 49.009739, 35.139492, 0.000000, 0.000000, 0.000000, 0.000000, 0.000000, 0.000000, 1620.000000
228.618927, 49.405983, 35.321205, 0.000000, 0.000000, 0.000000, 0.000000, 0.000000, 0.000000, 1635.000000
230.395706, 49.758980, 35.505589, 0.000000, 0.000000, 0.000000, 0.000000, 0.000000, 0.000000, 1650.000000
232.257431, 50.007862, 35.691837, 0.000000, 0.000000, 0.000000, 0.000000, 0.000000, 0.000000, 1665.000000
234.211899, 49.576397, 35.878120, 0.000000, 0.000000, 0.000000, 0.000000, 0.000000, 0.000000, 1680.000000
236.306641, 49.163551, 36.052742, 0.000000, 0.000000, 0.000000, 0.000000, 0.000000, 0.000000, 1695.000000
238.605164, 48.768410, 36.216290, 0.000000, 0.000000, 0.000000, 0.000000, 0.000000, 0.000000, 1710.000000
241.119522, 48.390106, 36.369316, 0.000000, 0.000000, 0.000000, 0.000000, 0.000000, 0.000000, 1725.000000
243.859085, 48.027817, 36.512352, 0.000000, 0.000000, 0.000000, 0.000000, 0.000000, 0.000000, 1740.000000
246.710999, 47.680756, 36.645901, 0.000000, 0.000000, 0.000000, 0.000000, 0.000000, 0.000000, 1755.000000
249.495422, 47.348179, 36.770443, 0.000000, 0.000000, 0.000000, 0.000000, 0.000000, 0.000000, 1770.000000
252.086426, 47.029381, 36.886429, 0.000000, 0.000000, 0.000000, 0.000000, 0.000000, 0.000000, 1785.000000
254.432144, 46.723686, 36.994289, 0.000000, 0.000000, 0.000000, 0.000000, 0.000000, 0.000000, 1800.000000
256.598145, 46.430454, 37.094440, 0.000000, 0.000000, 0.000000, 0.000000, 0.000000, 0.000000, 1815.000000
258.640442, 46.149078, 37.187267, 0.000000, 0.000000, 0.000000, 0.000000, 0.000000, 0.000000, 1830.000000
260.617432, 45.878983, 37.273140, 0.000000, 0.000000, 0.000000, 0.000000, 0.000000, 0.000000, 1845.000000
262.570038, 45.619614, 37.352413, 0.000000, 0.000000, 0.000000, 0.000000, 0.000000, 0.000000, 1860.000000
264.517700, 45.370453, 37.425423, 0.000000, 0.000000, 0.000000, 0.000000, 0.000000, 0.000000, 1875.000000
266.477386, 45.131001, 37.492485, 0.000000, 0.000000, 0.000000, 0.000000, 0.000000, 0.000000, 1890.000000
268.459137, 44.900787, 37.553902, 0.000000, 0.000000, 0.000000, 0.000000, 0.000000, 0.000000, 1905.000000
270.472382, 44.679363, 37.609962, 0.000000, 0.000000, 0.000000, 0.000000, 0.000000, 0.000000, 1920.000000
272.521515, 44.466301, 37.660938, 0.000000, 0.000000, 0.000000, 0.000000, 0.000000, 0.000000, 1935.000000
274.607513, 44.261196, 37.707092, 0.000000, 0.000000, 0.000000, 0.000000, 0.000000, 0.000000, 1950.000000
276.713593, 44.063663, 37.748669, 0.000000, 0.000000, 0.000000, 0.000000, 0.000000, 0.000000, 1965.000000
278.822266, 43.873337, 37.785900, 0.000000, 0.000000, 0.000000, 0.000000, 0.000000, 0.000000, 1980.000000
280.925659, 43.689869, 37.819012, 0.000000, 0.000000, 0.000000, 0.000000, 0.000000, 0.000000, 1995.000000
283.016876, 43.512928, 37.848217, 0.000000, 0.000000, 0.000000, 0.000000, 0.000000, 0.000000, 2010.000000
285.091858, 43.342201, 37.873714, 0.000000, 0.000000, 0.000000, 0.000000, 0.000000, 0.000000, 2025.000000
287.149536, 43.177387, 37.895695, 0.000000, 0.000000, 0.000000, 0.000000, 0.000000, 0.000000, 2040.000000
289.219330, 43.018204, 37.914341, 0.000000, 0.000000, 0.000000, 0.000000, 0.000000, 0.000000, 2055.000000
291.335480, 42.864380, 37.929825, 0.000000, 0.000000, 0.000000, 0.000000, 0.000000, 0.000000, 2070.000000
293.534119, 42.715660, 37.942314, 0.000000, 0.000000, 0.000000, 0.000000, 0.000000, 0.000000, 2085.000000
295.857635, 42.571796, 37.951962, 0.000000, 0.000000, 0.000000, 0.000000, 0.000000, 0.000000, 2100.000000
298.336914, 42.599304, 37.958916, 0.000000, 0.000000, 0.000000, 0.000000, 0.000000, 0.000000, 2115.000000
300.978424, 42.669704, 37.966183, 0.000000, 0.000000, 0.000000, 0.000000, 0.000000, 0.000000, 2130.000000
303.719971, 42.723701, 37.974495, 0.000000, 0.000000, 0.000000, 0.000000, 0.000000, 0.000000, 2145.000000
306.512939, 43.058727, 37.983547, 0.000000, 0.000000, 0.000000, 0.000000, 0.000000, 0.000000, 2160.000000
309.254913, 43.571693, 37.998154, 0.000000, 0.000000, 0.000000, 0.000000, 0.000000, 0.000000, 2175.000000
311.836365, 43.403713, 38.021244, 0.000000, 0.000000, 0.000000, 0.000000, 0.000000, 0.000000, 2190.000000
314.387512, 43.241493, 38.040920, 0.000000, 0.000000, 0.000000, 0.000000, 0.000000, 0.000000, 2205.000000
317.044434, 43.084755, 38.057358, 0.000000, 0.000000, 0.000000, 0.000000, 0.000000, 0.000000, 2220.000000
319.811127, 42.933235, 38.070728, 0.000000, 0.000000, 0.000000, 0.000000, 0.000000, 0.000000, 2235.000000
