Time(s), Twind(°C), TMotCase(°C), Flat_i(N), Flat_o(N), Flat_r(N), Frad_i(N), Frad_o(N), Frad_r(N)
0.000000, 37.912094, 34.995747, 0.000000, 0.000000, 0.000000, 0.000000, 0.000000, 0.000000, 0.000000
2.381539, 37.826641, 34.990116, 0.000000, 0.000000, 0.000000, 0.000000, 0.000000, 0.000000, 15.000000
4.842990, 37.743526, 34.983181, 0.000000, 0.000000, 0.000000, 0.000000, 0.000000, 0.000000, 30.000000
7.388608, 37.662643, 34.975014, 0.000000, 0.000000, 0.000000, 0.000000, 0.000000, 0.000000, 45.000000
10.022751, 37.583893, 34.965675, 0.000000, 0.000000, 0.000000, 0.000000, 0.000000, 0.000000, 60.000000
12.751932, 37.507175, 34.955227, 0.000000, 0.000000, 0.000000, 0.000000, 0.000000, 0.000000, 75.000000
15.584419, 37.432400, 34.943726, 0.000000, 0.000000, 0.000000, 0.000000, 0.000000, 0.000000, 90.000000
18.530563, 37.359478, 34.931232, 0.000000, 0.000000, 0.000000, 0.000000, 0.000000, 0.000000, 105.000000
21.595741, 37.288326, 34.917797, 0.000000, 0.000000, 0.000000, 0.000000, 0.000000, 0.000000, 120.000000
24.732533, 37.218864, 34.903469, 0.000000, 0.000000, 0.000000, 0.000000, 0.000000, 0.000000, 135.000000
27.875206, 37.151020, 34.888298, 0.000000, 0.000000, 0.000000, 0.000000, 0.000000, 0.000000, 150.000000
30.934280, 37.084721, 34.872330, 0.000000, 0.000000, 0.000000, 0.000000, 0.000000, 0.000000, 165.000000
33.841553, 37.019894, 34.855606, 0.000000, 0.000000, 0.000000, 0.000000, 0.000000, 0.000000, 180.000000
36.573441, 36.956478, 34.838169, 0.000000, 0.000000, 0.000000, 0.000000, 0.000000, 0.000000, 195.000000
39.124027, 36.894409, 34.820057, 0.000000, 0.000000, 0.000000, 0.000000, 0.000000, 0.000000, 210.000000
41.506973, 36.833626, 34.801311, 0.000000, 0.000000, 0.000000, 0.000000, 0.000000, 0.000000, 225.000000
43.736637, 36.774075, 34.781963, 0.000000, 0.000000, 0.000000, 0.000000, 0.000000, 0.000000, 240.000000
45.831219, 36.715702, 34.762051, 0.000000, 0.000000, 0.000000, 0.000000, 0.000000, 0.000000, 255.000000
47.806793, 36.658459, 34.741600, 0.000000, 0.000000, 0.000000, 0.000000, 0.000000, 0.000000, 270.000000
49.682098, 36.602291, 34.720646, 0.000000, 0.000000, 0.000000, 0.000000, 0.000000, 0.000000, 285.000000
51.472397, 36.547157, 34.699219, 0.000000, 0.000000, 0.000000, 0.000000, 0.000000, 0.000000, 300.000000
53.193394, 36.493011, 34.677345, 0.000000, 0.000000, 0.000000, 0.000000, 0.000000, 0.000000, 315.000000
54.858154, 36.439812, 34.655052, 0.000000, 0.000000, 0.000000, 0.000000, 0.000000, 0.000000, 330.000000
56.481804, 36.387516, 34.632362, 0.000000, 0.000000, 0.000000, 0.000000, 0.000000, 0.000000, 345.000000
58.077400, 36.336086, 34.609303, 0.000000, 0.000000, 0.000000, 0.000000, 0.000000, 0.000000, 360.000000
59.655224, 36.285488, 34.585892, 0.000000, 0.000000, 0.000000, 0.000000, 0.000000, 0.000000, 375.000000
61.223396, 36.235687, 34.562157, 0.000000, 0.000000, 0.000000, 0.000000, 0.000000, 0.000000, 390.000000
62.783897, 36.186649, 34.538113, 0.000000, 0.000000, 0.000000, 0.000000, 0.000000, 0.000000, 405.000000
64.338020, 36.138344, 34.513783, 0.000000, 0.000000, 0.000000, 0.000000, 0.000000, 0.000000, 420.000000
65.887466, 36.090740, 34.489185, 0.000000, 0.000000, 0.000000, 0.000000, 0.000000, 0.000000, 435.000000
67.434120, 36.043812, 34.464336, 0.000000, 0.000000, 0.000000, 0.000000, 0.000000, 0.000000, 450.000000
68.980103, 35.997532, 34.439255, 0.000000, 0.000000, 0.000000, 0.000000, 0.000000, 0.000000, 465.000000
70.527702, 35.951874, 34.413956, 0.000000, 0.000000, 0.000000, 0.000000, 0.000000, 0.000000, 480.000000
72.077957, 35.906811, 34.388451, 0.000000, 0.000000, 0.000000, 0.000000, 0.000000, 0.000000, 495.000000
73.631958, 35.862320, 34.362759, 0.000000, 0.000000, 0.000000, 0.000000, 0.000000, 0.000000, 510.000000
75.191330, 35.818382, 34.336891, 0.000000, 0.000000, 0.000000, 0.000000, 0.000000, 0.000000, 525.000000
76.757835, 35.774971, 34.310863, 0.000000, 0.000000, 0.000000, 0.000000, 0.000000, 0.000000, 540.000000
78.333122, 35.732071, 34.284687, 0.000000, 0.000000, 0.000000, 0.000000, 0.000000, 0.000000, 555.000000
79.918785, 35.689659, 34.258373, 0.000000, 0.000000, 0.000000, 0.000000, 0.000000, 0.000000, 570.000000
81.516075, 35.647720, 34.231934, 0.000000, 0.000000, 0.000000, 0.000000, 0.000000, 0.000000, 585.000000
83.126511, 35.606236, 34.205379, 0.000000, 0.000000, 0.000000, 0.000000, 0.000000, 0.000000, 600.000000
84.753044, 35.565189, 34.178719, 0.000000, 0.000000, 0.000000, 0.000000, 0.000000, 0.000000, 615.000000
86.399246, 35.524563, 34.151962, 0.000000, 0.000000, 0.000000, 0.000000, 0.000000, 0.000000, 630.000000
88.074646, 35.484344, 34.125122, 0.000000, 0.000000, 0.000000, 0.000000, 0.000000, 0.000000, 645.000000
89.790901, 35.444519, 34.098202, 0.000000, 0.000000, 0.000000, 0.000000, 0.000000, 0.000000, 660.000000
91.561104, 35.405071, 34.071213, 0.000000, 0.000000, 0.000000, 0.000000, 0.000000, 0.000000, 675.000000
93.398010, 35.365986, 34.044163, 0.000000, 0.000000, 0.000000, 0.000000, 0.000000, 0.000000, 690.000000
95.306198, 35.327255, 34.017059, 0.000000, 0.000000, 0.000000, 0.000000, 0.000000, 0.000000, 705.000000
97.288879, 35.288864, 33.989910, 0.000000, 0.000000, 0.000000, 0.000000, 0.000000, 0.000000, 720.000000
99.344513, 35.250801, 33.962719, 0.000000, 0.000000, 0.000000, 0.000000, 0.000000, 0.000000, 735.000000
101.469032, 35.213058, 33.935493, 0.000000, 0.000000, 0.000000, 0.000000, 0.000000, 0.000000, 750.000000
103.642181, 35.175625, 33.908241, 0.000000, 0.000000, 0.000000, 0.000000, 0.000000, 0.000000, 765.000000
105.840012, 35.138489, 33.880966, 0.000000, 0.000000, 0.000000, 0.000000, 0.000000, 0.000000, 780.000000
108.045288, 35.101643, 33.853676, 0.000000, 0.000000, 0.000000, 0.000000, 0.000000, 0.000000, 795.000000
110.245857, 35.065075, 33.826374, 0.000000, 0.000000, 0.000000, 0.000000, 0.000000, 0.000000, 810.000000
112.446754, 35.028778, 33.799065, 0.000000, 0.000000, 0.000000, 0.000000, 0.000000, 0.000000, 825.000000
114.652649, 34.992744, 33.771755, 0.000000, 0.000000, 0.000000, 0.000000, 0.000000, 0.000000, 840.000000
116.857506, 37.224396, 33.744450, 0.000000, 0.000000, 0.000000, 0.000000, 0.000000, 0.000000, 855.000000
118.847717, 37.122429, 33.755047, 0.000000, 0.000000, 0.000000, 0.000000, 0.000000, 0.000000, 870.000000
120.663803, 37.023758, 33.763702, 0.000000, 0.000000, 0.000000, 0.000000, 0.000000, 0.000000, 885.000000
122.479469, 36.928234, 33.770519, 0.000000, 0.000000, 0.000000, 0.000000, 0.000000, 0.000000, 900.000000
124.290543, 36.835709, 33.775589, 0.000000, 0.000000, 0.000000, 0.000000, 0.000000, 0.000000, 915.000000
126.092712, 36.746044, 33.778999, 0.000000, 0.000000, 0.000000, 0.000000, 0.000000, 0.000000, 930.000000
127.882042, 36.659107, 33.780834, 0.000000, 0.000000, 0.000000, 0.000000, 0.000000, 0.000000, 945.000000
129.655472, 36.574768, 33.781178, 0.000000, 0.000000, 0.000000, 0.000000, 0.000000, 0.000000, 960.000000
131.413147, 36.492912, 33.780102, 0.000000, 0.000000, 0.000000, 0.000000, 0.000000, 0.000000, 975.000000
133.155487, 36.413422, 33.777683, 0.000000, 0.000000, 0.000000, 0.000000, 0.000000, 0.000000, 990.000000
134.883896, 36.336189, 33.773991, 0.000000, 0.000000, 0.000000, 0.000000, 0.000000, 0.000000, 1005.000000
136.599762, 36.261112, 33.769089, 0.000000, 0.000000, 0.000000, 0.000000, 0.000000, 0.000000, 1020.000000
138.304764, 36.188091, 33.763039, 0.000000, 0.000000, 0.000000, 0.000000, 0.000000, 0.000000, 1035.000000
140.000504, 36.117035, 33.755901, 0.000000, 0.000000, 0.000000, 0.000000, 0.000000, 0.000000, 1050.000000
141.688217, 36.047852, 33.747734, 0.000000, 0.000000, 0.000000, 0.000000, 0.000000, 0.000000, 1065.000000
143.368988, 35.980453, 33.738594, 0.000000, 0.000000, 0.000000, 0.000000, 0.000000, 0.000000, 1080.000000
145.043335, 35.914764, 33.728531, 0.000000, 0.000000, 0.000000, 0.000000, 0.000000, 0.000000, 1095.000000
146.711624, 35.850704, 33.717590, 0.000000, 0.000000, 0.000000, 0.000000, 0.000000, 0.000000, 1110.000000
148.373993, 35.788200, 33.705822, 0.000000, 0.000000, 0.000000, 0.000000, 0.000000, 0.000000, 1125.000000
150.030365, 35.727184, 33.693272, 0.000000, 0.000000, 0.000000, 0.000000, 0.000000, 0.000000, 1140.000000
151.680023, 35.667587, 33.679977, 0.000000, 0.000000, 0.000000, 0.000000, 0.000000, 0.000000, 1155.000000
153.322311, 35.609348, 33.665981, 0.000000, 0.000000, 0.000000, 0.000000, 0.000000, 0.000000, 1170.000000
154.956726, 35.552406, 33.651321, 0.000000, 0.000000, 0.000000, 0.000000, 0.000000, 0.000000, 1185.000000
156.583023, 35.496700, 33.636036, 0.000000, 0.000000, 0.000000, 0.000000, 0.000000, 0.000000, 1200.000000
158.205887, 35.442181, 33.620159, 0.000000, 0.000000, 0.000000, 0.000000, 0.000000, 0.000000, 1215.000000
159.832001, 35.388794, 33.603722, 0.000000, 0.000000, 0.000000, 0.000000, 0.000000, 0.000000, 1230.000000
161.485306, 35.336491, 33.586758, 0.000000, 0.000000, 0.000000, 0.000000, 0.000000, 0.000000, 1245.000000
163.195023, 35.285221, 33.569294, 0.000000, 0.000000, 0.000000, 0.000000, 0.000000, 0.000000, 1260.000000
165.005020, 36.416168, 33.551361, 0.000000, 0.000000, 0.000000, 0.000000, 0.000000, 0.000000, 1275.000000
166.861649, 37.346882, 33.552727, 0.000000, 0.000000, 0.000000, 0.000000, 0.000000, 0.000000, 1290.000000
168.702515, 38.494984, 33.569618, 0.000000, 0.000000, 0.000000, 0.000000, 0.000000, 0.000000, 1305.000000
170.554535, 39.979752, 33.605324, 0.000000, 0.000000, 0.000000, 0.000000, 0.000000, 0.000000, 1320.000000
172.409103, 41.554840, 33.665054, 0.000000, 0.000000, 0.000000, 0.000000, 0.000000, 0.000000, 1335.000000
172.409103, 42.749043, 33.749786, 0.000000, 0.000000, 0.000000, 0.000000, 0.000000, 0.000000, 1350.000000
174.284515, 43.714069, 33.852600, 0.000000, 0.000000, 0.000000, 0.000000, 0.000000, 0.000000, 1365.000000
176.210587, 44.829304, 33.969265, 0.000000, 0.000000, 0.000000, 0.000000, 0.000000, 0.000000, 1380.000000
178.188950, 45.482380, 34.101986, 0.000000, 0.000000, 0.000000, 0.000000, 0.000000, 0.000000, 1395.000000
180.235413, 45.148918, 34.242680, 0.000000, 0.000000, 0.000000, 0.000000, 0.000000, 0.000000, 1410.000000
182.511734, 44.829350, 34.374683, 0.000000, 0.000000, 0.000000, 0.000000, 0.000000, 0.000000, 1425.000000
185.300110, 44.523014, 34.498421, 0.000000, 0.000000, 0.000000, 0.000000, 0.000000, 0.000000, 1440.000000
188.800079, 44.229279, 34.614300, 0.000000, 0.000000, 0.000000, 0.000000, 0.000000, 0.000000, 1455.000000
193.244446, 43.947544, 34.722702, 0.000000, 0.000000, 0.000000, 0.000000, 0.000000, 0.000000, 1470.000000
198.202972, 43.677242, 34.823994, 0.000000, 0.000000, 0.000000, 0.000000, 0.000000, 0.000000, 1485.000000
202.697678, 43.417828, 34.918522, 0.000000, 0.000000, 0.000000, 0.000000, 0.000000, 0.000000, 1500.000000
206.434113, 43.168785, 35.006622, 0.000000, 0.000000, 0.000000, 0.000000, 0.000000, 0.000000, 1515.000000
209.504074, 42.929623, 35.088608, 0.000000, 0.000000, 0.000000, 0.000000, 0.000000, 0.000000, 1530.000000
212.191620, 42.699871, 35.164780, 0.000000, 0.000000, 0.000000, 0.000000, 0.000000, 0.000000, 1545.000000
214.643661, 42.479080, 35.235424, 0.000000, 0.000000, 0.000000, 0.000000, 0.000000, 0.000000, 1560.000000
216.971130, 42.266830, 35.300816, 0.000000, 0.000000, 0.000000, 0.000000, 0.000000, 0.000000, 1575.000000
219.244888, 42.062717, 35.361210, 0.000000, 0.000000, 0.000000, 0.000000, 0.000000, 0.000000, 1590.000000
221.499481, 41.866352, 35.416855, 0.000000, 0.000000, 0.000000, 0.000000, 0.000000, 0.000000, 1605.000000
223.759872, 41.677372, 35.467983, 0.000000, 0.000000, 0.000000, 0.000000, 0.000000, 0.000000, 1620.000000
226.037827, 41.495426, 35.514824, 0.000000, 0.000000, 0.000000, 0.000000, 0.000000, 0.000000, 1635.000000
228.345886, 41.320187, 35.557583, 0.000000, 0.000000, 0.000000, 0.000000, 0.000000, 0.000000, 1650.000000
