Time(s), Twind(°C), TMotCase(°C), Flat_i(N), Flat_o(N), Flat_r(N), Frad_i(N), Frad_o(N), Frad_r(N)
0.000000, 38.519596, 34.997082, 0.000000, 0.000000, 0.000000, 0.000000, 0.000000, 0.000000, 0.000000
2.235596, 39.052891, 35.000164, 0.000000, 0.000000, 0.000000, 0.000000, 0.000000, 0.000000, 10.000000
4.170546, 39.597279, 35.009312, 0.000000, 0.000000, 0.000000, 0.000000, 0.000000, 0.000000, 20.000000
5.901340, 39.505096, 35.024559, 0.000000, 0.000000, 0.000000, 0.000000, 0.000000, 0.000000, 30.000000
7.568112, 39.415073, 35.038517, 0.000000, 0.000000, 0.000000, 0.000000, 0.000000, 0.000000, 40.000000
9.271994, 39.327137, 35.051231, 0.000000, 0.000000, 0.000000, 0.000000, 0.000000, 0.000000, 50.000000
11.014441, 39.241222, 35.062744, 0.000000, 0.000000, 0.000000, 0.000000, 0.000000, 0.000000, 60.000000
12.797528, 39.157265, 35.073097, 0.000000, 0.000000, 0.000000, 0.000000, 0.000000, 0.000000, 70.000000
14.624258, 39.075203, 35.082333, 0.000000, 0.000000, 0.000000, 0.000000, 0.000000, 0.000000, 80.000000
16.498531, 38.994976, 35.090488, 0.000000, 0.000000, 0.000000, 0.000000, 0.000000, 0.000000, 90.000000
18.423157, 38.916527, 35.097599, 0.000000, 0.000000, 0.000000, 0.000000, 0.000000, 0.000000, 100.000000
20.396013, 38.839794, 35.103703, 0.000000, 0.000000, 0.000000, 0.000000, 0.000000, 0.000000, 110.000000
22.407398, 38.764729, 35.108833, 0.000000, 0.000000, 0.000000, 0.000000, 0.000000, 0.000000, 120.000000
24.440187, 38.691273, 35.113026, 0.000000, 0.000000, 0.000000, 0.000000, 0.000000, 0.000000, 130.000000
26.471146, 38.619377, 35.116314, 0.000000, 0.000000, 0.000000, 0.000000, 0.000000, 0.000000, 140.000000
28.474939, 38.548992, 35.118729, 0.000000, 0.000000, 0.000000, 0.000000, 0.000000, 0.000000, 150.000000
30.429794, 38.480068, 35.120300, 0.000000, 0.000000, 0.000000, 0.000000, 0.000000, 0.000000, 160.000000
32.320450, 38.412563, 35.121056, 0.000000, 0.000000, 0.000000, 0.000000, 0.000000, 0.000000, 170.000000
34.138454, 38.346428, 35.121029, 0.000000, 0.000000, 0.000000, 0.000000, 0.000000, 0.000000, 180.000000
35.881046, 38.281620, 35.120243, 0.000000, 0.000000, 0.000000, 0.000000, 0.000000, 0.000000, 190.000000
37.549305, 38.218102, 35.118725, 0.000000, 0.000000, 0.000000, 0.000000, 0.000000, 0.000000, 200.000000
39.146244, 38.155827, 35.116505, 0.000000, 0.000000, 0.000000, 0.000000, 0.000000, 0.000000, 210.000000
40.675636, 38.094761, 35.113602, 0.000000, 0.000000, 0.000000, 0.000000, 0.000000, 0.000000, 220.000000
42.141674, 38.034863, 35.110043, 0.000000, 0.000000, 0.000000, 0.000000, 0.000000, 0.000000, 230.000000
43.548889, 37.976097, 35.105854, 0.000000, 0.000000, 0.000000, 0.000000, 0.000000, 0.000000, 240.000000
44.901993, 37.918427, 35.101055, 0.000000, 0.000000, 0.000000, 0.000000, 0.000000, 0.000000, 250.000000
46.205784, 37.861820, 35.095669, 0.000000, 0.000000, 0.000000, 0.000000, 0.000000, 0.000000, 260.000000
47.465137, 37.806240, 35.089714, 0.000000, 0.000000, 0.000000, 0.000000, 0.000000, 0.000000, 270.000000
48.684807, 37.751659, 35.083214, 0.000000, 0.000000, 0.000000, 0.000000, 0.000000, 0.000000, 280.000000
49.869244, 37.698044, 35.076187, 0.000000, 0.000000, 0.000000, 0.000000, 0.000000, 0.000000, 290.000000
51.022575, 37.645363, 35.068653, 0.000000, 0.000000, 0.000000, 0.000000, 0.000000, 0.000000, 300.000000
52.148827, 37.593590, 35.060627, 0.000000, 0.000000, 0.000000, 0.000000, 0.000000, 0.000000, 310.000000
53.252079, 37.542698, 35.052132, 0.000000, 0.000000, 0.000000, 0.000000, 0.000000, 0.000000, 320.000000
54.336533, 37.492657, 35.043182, 0.000000, 0.000000, 0.000000, 0.000000, 0.000000, 0.000000, 330.000000
55.406338, 37.443439, 35.033794, 0.000000, 0.000000, 0.000000, 0.000000, 0.000000, 0.000000, 340.000000
56.465324, 37.395023, 35.023983, 0.000000, 0.000000, 0.000000, 0.000000, 0.000000, 0.000000, 350.000000
57.516781, 37.347382, 35.013767, 0.000000, 0.000000, 0.000000, 0.000000, 0.000000, 0.000000, 360.000000
58.563206, 37.300495, 35.003162, 0.000000, 0.000000, 0.000000, 0.000000, 0.000000, 0.000000, 370.000000
59.606163, 37.254337, 34.992180, 0.000000, 0.000000, 0.000000, 0.000000, 0.000000, 0.000000, 380.000000
60.646355, 37.208885, 34.980835, 0.000000, 0.000000, 0.000000, 0.000000, 0.000000, 0.000000, 390.000000
61.684006, 37.164120, 34.969143, 0.000000, 0.000000, 0.000000, 0.000000, 0.000000, 0.000000, 400.000000
62.719246, 37.120018, 34.957115, 0.000000, 0.000000, 0.000000, 0.000000, 0.000000, 0.000000, 410.000000
63.752384, 37.076561, 34.944763, 0.000000, 0.000000, 0.000000, 0.000000, 0.000000, 0.000000, 420.000000
64.784050, 37.033730, 34.932102, 0.000000, 0.000000, 0.000000, 0.000000, 0.000000, 0.000000, 430.000000
65.814919, 36.991501, 34.919144, 0.000000, 0.000000, 0.000000, 0.000000, 0.000000, 0.000000, 440.000000
66.845970, 36.949863, 34.905895, 0.000000, 0.000000, 0.000000, 0.000000, 0.000000, 0.000000, 450.000000
67.877411, 36.908794, 34.892372, 0.000000, 0.000000, 0.000000, 0.000000, 0.000000, 0.000000, 460.000000
68.909828, 36.868279, 34.878582, 0.000000, 0.000000, 0.000000, 0.000000, 0.000000, 0.000000, 470.000000
69.943657, 36.828300, 34.864540, 0.000000, 0.000000, 0.000000, 0.000000, 0.000000, 0.000000, 480.000000
70.979179, 36.788845, 34.850250, 0.000000, 0.000000, 0.000000, 0.000000, 0.000000, 0.000000, 490.000000
72.016708, 36.749893, 34.835728, 0.000000, 0.000000, 0.000000, 0.000000, 0.000000, 0.000000, 500.000000
73.056725, 36.711433, 34.820980, 0.000000, 0.000000, 0.000000, 0.000000, 0.000000, 0.000000, 510.000000
74.099739, 36.673450, 34.806015, 0.000000, 0.000000, 0.000000, 0.000000, 0.000000, 0.000000, 520.000000
75.146347, 36.635929, 34.790840, 0.000000, 0.000000, 0.000000, 0.000000, 0.000000, 0.000000, 530.000000
76.197067, 36.598858, 34.775467, 0.000000, 0.000000, 0.000000, 0.000000, 0.000000, 0.000000, 540.000000
77.252380, 36.562222, 34.759903, 0.000000, 0.000000, 0.000000, 0.000000, 0.000000, 0.000000, 550.000000
78.312675, 36.526009, 34.744156, 0.000000, 0.000000, 0.000000, 0.000000, 0.000000, 0.000000, 560.000000
79.378288, 36.490208, 34.728233, 0.000000, 0.000000, 0.000000, 0.000000, 0.000000, 0.000000, 570.000000
80.449638, 36.454803, 34.712139, 0.000000, 0.000000, 0.000000, 0.000000, 0.000000, 0.000000, 580.000000
81.527313, 36.419788, 34.695885, 0.000000, 0.000000, 0.000000, 0.000000, 0.000000, 0.000000, 590.000000
82.612099, 36.385151, 34.679478, 0.000000, 0.000000, 0.000000, 0.000000, 0.000000, 0.000000, 600.000000
83.705025, 36.350880, 34.662922, 0.000000, 0.000000, 0.000000, 0.000000, 0.000000, 0.000000, 610.000000
84.807480, 36.316963, 34.646225, 0.000000, 0.000000, 0.000000, 0.000000, 0.000000, 0.000000, 620.000000
85.921730, 36.283394, 34.629395, 0.000000, 0.000000, 0.000000, 0.000000, 0.000000, 0.000000, 630.000000
87.051292, 36.250160, 34.612434, 0.000000, 0.000000, 0.000000, 0.000000, 0.000000, 0.000000, 640.000000
88.200577, 36.217255, 34.595348, 0.000000, 0.000000, 0.000000, 0.000000, 0.000000, 0.000000, 650.000000
89.373962, 36.184666, 34.578148, 0.000000, 0.000000, 0.000000, 0.000000, 0.000000, 0.000000, 660.000000
90.575218, 36.152386, 34.560833, 0.000000, 0.000000, 0.000000, 0.000000, 0.000000, 0.000000, 670.000000
91.807129, 36.120407, 34.543411, 0.000000, 0.000000, 0.000000, 0.000000, 0.000000, 0.000000, 680.000000
93.071518, 36.088722, 34.525887, 0.000000, 0.000000, 0.000000, 0.000000, 0.000000, 0.000000, 690.000000
94.369316, 36.057320, 34.508266, 0.000000, 0.000000, 0.000000, 0.000000, 0.000000, 0.000000, 700.000000
95.700768, 36.026196, 34.490555, 0.000000, 0.000000, 0.000000, 0.000000, 0.000000, 0.000000, 710.000000
97.065628, 35.995342, 34.472755, 0.000000, 0.000000, 0.000000, 0.000000, 0.000000, 0.000000, 720.000000
98.463165, 35.964748, 34.454872, 0.000000, 0.000000, 0.000000, 0.000000, 0.000000, 0.000000, 730.000000
99.891075, 35.934410, 34.436909, 0.000000, 0.000000, 0.000000, 0.000000, 0.000000, 0.000000, 740.000000
101.344269, 35.904320, 34.418873, 0.000000, 0.000000, 0.000000, 0.000000, 0.000000, 0.000000, 750.000000
102.815163, 35.874474, 34.400764, 0.000000, 0.000000, 0.000000, 0.000000, 0.000000, 0.000000, 760.000000
104.295372, 35.844864, 34.382591, 0.000000, 0.000000, 0.000000, 0.000000, 0.000000, 0.000000, 770.000000
105.779427, 35.815483, 34.364353, 0.000000, 0.000000, 0.000000, 0.000000, 0.000000, 0.000000, 780.000000
107.261177, 35.786327, 34.346054, 0.000000, 0.000000, 0.000000, 0.000000, 0.000000, 0.000000, 790.000000
108.741081, 35.757389, 34.327702, 0.000000, 0.000000, 0.000000, 0.000000, 0.000000, 0.000000, 800.000000
110.220390, 35.728664, 34.309296, 0.000000, 0.000000, 0.000000, 0.000000, 0.000000, 0.000000, 810.000000
111.701309, 35.700146, 34.290840, 0.000000, 0.000000, 0.000000, 0.000000, 0.000000, 0.000000, 820.000000
113.184708, 35.671829, 34.272339, 0.000000, 0.000000, 0.000000, 0.000000, 0.000000, 0.000000, 830.000000
114.669807, 35.643711, 34.253792, 0.000000, 0.000000, 0.000000, 0.000000, 0.000000, 0.000000, 840.000000
116.153000, 35.615784, 34.235207, 0.000000, 0.000000, 0.000000, 0.000000, 0.000000, 0.000000, 850.000000
117.632339, 35.588043, 34.216583, 0.000000, 0.000000, 0.000000, 0.000000, 0.000000, 0.000000, 860.000000
119.107033, 35.560486, 34.197922, 0.000000, 0.000000, 0.000000, 0.000000, 0.000000, 0.000000, 870.000000
120.577133, 35.533108, 34.179230, 0.000000, 0.000000, 0.000000, 0.000000, 0.000000, 0.000000, 880.000000
122.042412, 35.505905, 34.160507, 0.000000, 0.000000, 0.000000, 0.000000, 0.000000, 0.000000, 890.000000
123.501770, 35.478874, 34.141758, 0.000000, 0.000000, 0.000000, 0.000000, 0.000000, 0.000000, 900.000000
124.953300, 35.452007, 34.122982, 0.000000, 0.000000, 0.000000, 0.000000, 0.000000, 0.000000, 910.000000
126.394714, 35.425304, 34.104187, 0.000000, 0.000000, 0.000000, 0.000000, 0.000000, 0.000000, 920.000000
127.823967, 35.398762, 34.085369, 0.000000, 0.000000, 0.000000, 0.000000, 0.000000, 0.000000, 930.000000
129.239761, 35.372372, 34.066532, 0.000000, 0.000000, 0.000000, 0.000000, 0.000000, 0.000000, 940.000000
130.641541, 35.346134, 34.047680, 0.000000, 0.000000, 0.000000, 0.000000, 0.000000, 0.000000, 950.000000
132.029373, 35.320045, 34.028812, 0.000000, 0.000000, 0.000000, 0.000000, 0.000000, 0.000000, 960.000000
133.403793, 35.294102, 34.009933, 0.000000, 0.000000, 0.000000, 0.000000, 0.000000, 0.000000, 970.000000
134.765549, 35.268299, 33.991043, 0.000000, 0.000000, 0.000000, 0.000000, 0.000000, 0.000000, 980.000000
136.115433, 35.242638, 33.972145, 0.000000, 0.000000, 0.000000, 0.000000, 0.000000, 0.000000, 990.000000
137.454285, 35.217110, 33.953239, 0.000000, 0.000000, 0.000000, 0.000000, 0.000000, 0.000000, 1000.000000
138.782990, 35.191715, 33.934330, 0.000000, 0.000000, 0.000000, 0.000000, 0.000000, 0.000000, 1010.000000
140.102417, 35.166451, 33.915417, 0.000000, 0.000000, 0.000000, 0.000000, 0.000000, 0.000000, 1020.000000
141.413467, 35.141315, 33.896500, 0.000000, 0.000000, 0.000000, 0.000000, 0.000000, 0.000000, 1030.000000
142.716949, 35.116302, 33.877583, 0.000000, 0.000000, 0.000000, 0.000000, 0.000000, 0.000000, 1040.000000
144.013565, 35.091415, 33.858665, 0.000000, 0.000000, 0.000000, 0.000000, 0.000000, 0.000000, 1050.000000
145.303864, 35.066647, 33.839752, 0.000000, 0.000000, 0.000000, 0.000000, 0.000000, 0.000000, 1060.000000
146.588242, 35.041996, 33.820843, 0.000000, 0.000000, 0.000000, 0.000000, 0.000000, 0.000000, 1070.000000
147.866959, 35.017460, 33.801937, 0.000000, 0.000000, 0.000000, 0.000000, 0.000000, 0.000000, 1080.000000
149.140182, 34.993038, 33.783035, 0.000000, 0.000000, 0.000000, 0.000000, 0.000000, 0.000000, 1090.000000
150.408066, 34.968727, 33.764141, 0.000000, 0.000000, 0.000000, 0.000000, 0.000000, 0.000000, 1100.000000
151.670700, 34.944523, 33.745258, 0.000000, 0.000000, 0.000000, 0.000000, 0.000000, 0.000000, 1110.000000
152.928055, 34.920425, 33.726383, 0.000000, 0.000000, 0.000000, 0.000000, 0.000000, 0.000000, 1120.000000
154.179962, 34.896435, 33.707520, 0.000000, 0.000000, 0.000000, 0.000000, 0.000000, 0.000000, 1130.000000
155.426117, 34.872547, 33.688667, 0.000000, 0.000000, 0.000000, 0.000000, 0.000000, 0.000000, 1140.000000
156.666153, 34.848759, 33.669827, 0.000000, 0.000000, 0.000000, 0.000000, 0.000000, 0.000000, 1150.000000
157.899704, 34.825069, 33.651001, 0.000000, 0.000000, 0.000000, 0.000000, 0.000000, 0.000000, 1160.000000
159.126556, 34.801479, 33.632187, 0.000000, 0.000000, 0.000000, 0.000000, 0.000000, 0.000000, 1170.000000
160.346588, 34.777985, 33.613392, 0.000000, 0.000000, 0.000000, 0.000000, 0.000000, 0.000000, 1180.000000
161.559906, 34.754585, 33.594612, 0.000000, 0.000000, 0.000000, 0.000000, 0.000000, 0.000000, 1190.000000
162.767532, 34.731277, 33.575848, 0.000000, 0.000000, 0.000000, 0.000000, 0.000000, 0.000000, 1200.000000
163.972137, 34.708061, 33.557102, 0.000000, 0.000000, 0.000000, 0.000000, 0.000000, 0.000000, 1210.000000
165.178940, 34.684937, 33.538376, 0.000000, 0.000000, 0.000000, 0.000000, 0.000000, 0.000000, 1220.000000
166.396317, 34.661900, 33.519669, 0.000000, 0.000000, 0.000000, 0.000000, 0.000000, 0.000000, 1230.000000
167.635895, 34.638950, 33.500980, 0.000000, 0.000000, 0.000000, 0.000000, 0.000000, 0.000000, 1240.000000
168.912659, 35.355530, 33.482315, 0.000000, 0.000000, 0.000000, 0.000000, 0.000000, 0.000000, 1250.000000
170.195099, 36.072411, 33.472145, 0.000000, 0.000000, 0.000000, 0.000000, 0.000000, 0.000000, 1260.000000
171.450241, 36.787586, 33.470345, 0.000000, 0.000000, 0.000000, 0.000000, 0.000000, 0.000000, 1270.000000
172.691071, 37.499424, 33.476768, 0.000000, 0.000000, 0.000000, 0.000000, 0.000000, 0.000000, 1280.000000
173.928070, 38.206593, 33.491253, 0.000000, 0.000000, 0.000000, 0.000000, 0.000000, 0.000000, 1290.000000
175.169067, 38.907986, 33.513622, 0.000000, 0.000000, 0.000000, 0.000000, 0.000000, 0.000000, 1300.000000
176.421707, 39.602695, 33.543690, 0.000000, 0.000000, 0.000000, 0.000000, 0.000000, 0.000000, 1310.000000
177.692642, 40.289978, 33.581261, 0.000000, 0.000000, 0.000000, 0.000000, 0.000000, 0.000000, 1320.000000
178.988083, 40.969234, 33.626141, 0.000000, 0.000000, 0.000000, 0.000000, 0.000000, 0.000000, 1330.000000
180.313904, 41.640030, 33.678123, 0.000000, 0.000000, 0.000000, 0.000000, 0.000000, 0.000000, 1340.000000
181.675354, 42.302147, 33.737003, 0.000000, 0.000000, 0.000000, 0.000000, 0.000000, 0.000000, 1350.000000
183.076736, 42.955582, 33.802578, 0.000000, 0.000000, 0.000000, 0.000000, 0.000000, 0.000000, 1360.000000
184.521317, 43.600517, 33.874645, 0.000000, 0.000000, 0.000000, 0.000000, 0.000000, 0.000000, 1370.000000
186.011398, 44.237255, 33.953007, 0.000000, 0.000000, 0.000000, 0.000000, 0.000000, 0.000000, 1380.000000
187.548553, 44.866165, 34.037476, 0.000000, 0.000000, 0.000000, 0.000000, 0.000000, 0.000000, 1390.000000
189.132782, 45.487858, 34.127869, 0.000000, 0.000000, 0.000000, 0.000000, 0.000000, 0.000000, 1400.000000
190.759644, 46.103489, 34.224014, 0.000000, 0.000000, 0.000000, 0.000000, 0.000000, 0.000000, 1410.000000
192.416031, 45.864803, 34.325756, 0.000000, 0.000000, 0.000000, 0.000000, 0.000000, 0.000000, 1420.000000
194.196182, 45.632957, 34.423214, 0.000000, 0.000000, 0.000000, 0.000000, 0.000000, 0.000000, 1430.000000
196.246887, 45.407726, 34.516537, 0.000000, 0.000000, 0.000000, 0.000000, 0.000000, 0.000000, 1440.000000
198.621078, 45.188896, 34.605862, 0.000000, 0.000000, 0.000000, 0.000000, 0.000000, 0.000000, 1450.000000
201.331650, 44.976257, 34.691319, 0.000000, 0.000000, 0.000000, 0.000000, 0.000000, 0.000000, 1460.000000
204.282410, 44.769608, 34.773041, 0.000000, 0.000000, 0.000000, 0.000000, 0.000000, 0.000000, 1470.000000
207.250778, 44.568752, 34.851154, 0.000000, 0.000000, 0.000000, 0.000000, 0.000000, 0.000000, 1480.000000
210.012756, 44.373501, 34.925777, 0.000000, 0.000000, 0.000000, 0.000000, 0.000000, 0.000000, 1490.000000
212.472885, 44.183674, 34.997032, 0.000000, 0.000000, 0.000000, 0.000000, 0.000000, 0.000000, 1500.000000
214.649109, 43.999092, 35.065029, 0.000000, 0.000000, 0.000000, 0.000000, 0.000000, 0.000000, 1510.000000
216.599792, 43.819584, 35.129875, 0.000000, 0.000000, 0.000000, 0.000000, 0.000000, 0.000000, 1520.000000
218.383499, 43.644985, 35.191681, 0.000000, 0.000000, 0.000000, 0.000000, 0.000000, 0.000000, 1530.000000
220.048325, 43.475140, 35.250546, 0.000000, 0.000000, 0.000000, 0.000000, 0.000000, 0.000000, 1540.000000
221.631699, 43.309887, 35.306572, 0.000000, 0.000000, 0.000000, 0.000000, 0.000000, 0.000000, 1550.000000
223.162384, 43.149082, 35.359852, 0.000000, 0.000000, 0.000000, 0.000000, 0.000000, 0.000000, 1560.000000
224.661987, 42.992577, 35.410480, 0.000000, 0.000000, 0.000000, 0.000000, 0.000000, 0.000000, 1570.000000
226.145844, 42.840233, 35.458546, 0.000000, 0.000000, 0.000000, 0.000000, 0.000000, 0.000000, 1580.000000
227.624405, 42.691917, 35.504135, 0.000000, 0.000000, 0.000000, 0.000000, 0.000000, 0.000000, 1590.000000
229.104111, 42.547497, 35.547333, 0.000000, 0.000000, 0.000000, 0.000000, 0.000000, 0.000000, 1600.000000
230.588745, 42.406845, 35.588219, 0.000000, 0.000000, 0.000000, 0.000000, 0.000000, 0.000000, 1610.000000
232.080933, 42.269844, 35.626869, 0.000000, 0.000000, 0.000000, 0.000000, 0.000000, 0.000000, 1620.000000
233.584198, 42.136372, 35.663364, 0.000000, 0.000000, 0.000000, 0.000000, 0.000000, 0.000000, 1630.000000
235.102509, 42.006313, 35.697777, 0.000000, 0.000000, 0.000000, 0.000000, 0.000000, 0.000000, 1640.000000
236.633759, 41.879559, 35.730175, 0.000000, 0.000000, 0.000000, 0.000000, 0.000000, 0.000000, 1650.000000
