Time(s), Twind(°C), TMotCase(°C), Flat_i(N), Flat_o(N), Flat_r(N), Frad_i(N), Frad_o(N), Frad_r(N)
0.000000, 25.119879, 25.000000, 0.000000, 0.000000, 0.000000, 0.000000, 0.000000, 0.000000, 0.000000
8.582734, 25.357170, 25.001427, 0.000000, 0.000000, 0.000000, 0.000000, 0.000000, 0.000000, 10.000000
12.033875, 25.651905, 25.005655, 0.000000, 0.000000, 0.000000, 0.000000, 0.000000, 0.000000, 20.000000
14.585016, 25.992968, 25.013325, 0.000000, 0.000000, 0.000000, 0.000000, 0.000000, 0.000000, 30.000000
16.680649, 26.374872, 25.024933, 0.000000, 0.000000, 0.000000, 0.000000, 0.000000, 0.000000, 40.000000
18.489319, 26.794313, 25.040905, 0.000000, 0.000000, 0.000000, 0.000000, 0.000000, 0.000000, 50.000000
20.096663, 26.757725, 25.061617, 0.000000, 0.000000, 0.000000, 0.000000, 0.000000, 0.000000, 60.000000
21.636827, 26.722332, 25.081566, 0.000000, 0.000000, 0.000000, 0.000000, 0.000000, 0.000000, 70.000000
23.207287, 26.688093, 25.100779, 0.000000, 0.000000, 0.000000, 0.000000, 0.000000, 0.000000, 80.000000
24.810904, 26.654970, 25.119282, 0.000000, 0.000000, 0.000000, 0.000000, 0.000000, 0.000000, 90.000000
26.449892, 26.622925, 25.137098, 0.000000, 0.000000, 0.000000, 0.000000, 0.000000, 0.000000, 100.000000
28.123407, 26.591919, 25.154253, 0.000000, 0.000000, 0.000000, 0.000000, 0.000000, 0.000000, 110.000000
29.826046, 26.561918, 25.170767, 0.000000, 0.000000, 0.000000, 0.000000, 0.000000, 0.000000, 120.000000
31.547964, 26.532888, 25.186665, 0.000000, 0.000000, 0.000000, 0.000000, 0.000000, 0.000000, 130.000000
33.274837, 26.504797, 25.201965, 0.000000, 0.000000, 0.000000, 0.000000, 0.000000, 0.000000, 140.000000
34.989971, 26.477610, 25.216690, 0.000000, 0.000000, 0.000000, 0.000000, 0.000000, 0.000000, 150.000000
36.678013, 26.451298, 25.230860, 0.000000, 0.000000, 0.000000, 0.000000, 0.000000, 0.000000, 160.000000
38.327179, 26.425831, 25.244492, 0.000000, 0.000000, 0.000000, 0.000000, 0.000000, 0.000000, 170.000000
39.929771, 26.401178, 25.257607, 0.000000, 0.000000, 0.000000, 0.000000, 0.000000, 0.000000, 180.000000
41.481842, 26.377316, 25.270220, 0.000000, 0.000000, 0.000000, 0.000000, 0.000000, 0.000000, 190.000000
42.982239, 26.354214, 25.282351, 0.000000, 0.000000, 0.000000, 0.000000, 0.000000, 0.000000, 200.000000
44.431461, 26.331846, 25.294014, 0.000000, 0.000000, 0.000000, 0.000000, 0.000000, 0.000000, 210.000000
45.830845, 26.310190, 25.305227, 0.000000, 0.000000, 0.000000, 0.000000, 0.000000, 0.000000, 220.000000
47.182335, 26.289219, 25.316006, 0.000000, 0.000000, 0.000000, 0.000000, 0.000000, 0.000000, 230.000000
48.488400, 26.268909, 25.326365, 0.000000, 0.000000, 0.000000, 0.000000, 0.000000, 0.000000, 240.000000
49.751896, 26.249241, 25.336319, 0.000000, 0.000000, 0.000000, 0.000000, 0.000000, 0.000000, 250.000000
50.975971, 26.230190, 25.345882, 0.000000, 0.000000, 0.000000, 0.000000, 0.000000, 0.000000, 260.000000
52.164005, 26.211737, 25.355068, 0.000000, 0.000000, 0.000000, 0.000000, 0.000000, 0.000000, 270.000000
53.319424, 26.193861, 25.363890, 0.000000, 0.000000, 0.000000, 0.000000, 0.000000, 0.000000, 280.000000
54.445518, 26.176542, 25.372358, 0.000000, 0.000000, 0.000000, 0.000000, 0.000000, 0.000000, 290.000000
55.545437, 26.159761, 25.380487, 0.000000, 0.000000, 0.000000, 0.000000, 0.000000, 0.000000, 300.000000
56.622391, 26.143499, 25.388288, 0.000000, 0.000000, 0.000000, 0.000000, 0.000000, 0.000000, 310.000000
57.679798, 26.127741, 25.395773, 0.000000, 0.000000, 0.000000, 0.000000, 0.000000, 0.000000, 320.000000
58.721340, 26.112467, 25.402952, 0.000000, 0.000000, 0.000000, 0.000000, 0.000000, 0.000000, 330.000000
59.750740, 26.097660, 25.409836, 0.000000, 0.000000, 0.000000, 0.000000, 0.000000, 0.000000, 340.000000
60.771503, 26.083307, 25.416435, 0.000000, 0.000000, 0.000000, 0.000000, 0.000000, 0.000000, 350.000000
61.786621, 26.069391, 25.422760, 0.000000, 0.000000, 0.000000, 0.000000, 0.000000, 0.000000, 360.000000
62.798344, 26.055897, 25.428820, 0.000000, 0.000000, 0.000000, 0.000000, 0.000000, 0.000000, 370.000000
63.807987, 26.042810, 25.434622, 0.000000, 0.000000, 0.000000, 0.000000, 0.000000, 0.000000, 380.000000
64.816116, 26.030119, 25.440178, 0.000000, 0.000000, 0.000000, 0.000000, 0.000000, 0.000000, 390.000000
65.822723, 26.017809, 25.445494, 0.000000, 0.000000, 0.000000, 0.000000, 0.000000, 0.000000, 400.000000
66.827736, 26.005867, 25.450581, 0.000000, 0.000000, 0.000000, 0.000000, 0.000000, 0.000000, 410.000000
67.831329, 25.994280, 25.455444, 0.000000, 0.000000, 0.000000, 0.000000, 0.000000, 0.000000, 420.000000
68.833878, 25.983036, 25.460094, 0.000000, 0.000000, 0.000000, 0.000000, 0.000000, 0.000000, 430.000000
69.835777, 25.972124, 25.464537, 0.000000, 0.000000, 0.000000, 0.000000, 0.000000, 0.000000, 440.000000
70.838158, 25.961533, 25.468779, 0.000000, 0.000000, 0.000000, 0.000000, 0.000000, 0.000000, 450.000000
71.841324, 25.951250, 25.472828, 0.000000, 0.000000, 0.000000, 0.000000, 0.000000, 0.000000, 460.000000
72.845657, 25.941267, 25.476690, 0.000000, 0.000000, 0.000000, 0.000000, 0.000000, 0.000000, 470.000000
73.851418, 25.931572, 25.480373, 0.000000, 0.000000, 0.000000, 0.000000, 0.000000, 0.000000, 480.000000
74.858910, 25.922157, 25.483883, 0.000000, 0.000000, 0.000000, 0.000000, 0.000000, 0.000000, 490.000000
75.868416, 25.913012, 25.487225, 0.000000, 0.000000, 0.000000, 0.000000, 0.000000, 0.000000, 500.000000
76.880356, 25.904127, 25.490406, 0.000000, 0.000000, 0.000000, 0.000000, 0.000000, 0.000000, 510.000000
77.895241, 25.895494, 25.493431, 0.000000, 0.000000, 0.000000, 0.000000, 0.000000, 0.000000, 520.000000
78.913589, 25.887104, 25.496305, 0.000000, 0.000000, 0.000000, 0.000000, 0.000000, 0.000000, 530.000000
79.935875, 25.878948, 25.499035, 0.000000, 0.000000, 0.000000, 0.000000, 0.000000, 0.000000, 540.000000
80.962517, 25.871021, 25.501623, 0.000000, 0.000000, 0.000000, 0.000000, 0.000000, 0.000000, 550.000000
81.993881, 25.863314, 25.504076, 0.000000, 0.000000, 0.000000, 0.000000, 0.000000, 0.000000, 560.000000
83.030266, 25.855818, 25.506399, 0.000000, 0.000000, 0.000000, 0.000000, 0.000000, 0.000000, 570.000000
84.072044, 25.848526, 25.508596, 0.000000, 0.000000, 0.000000, 0.000000, 0.000000, 0.000000, 580.000000
85.119743, 25.841433, 25.510672, 0.000000, 0.000000, 0.000000, 0.000000, 0.000000, 0.000000, 590.000000
86.174095, 25.834530, 25.512630, 0.000000, 0.000000, 0.000000, 0.000000, 0.000000, 0.000000, 600.000000
87.236008, 25.827812, 25.514477, 0.000000, 0.000000, 0.000000, 0.000000, 0.000000, 0.000000, 610.000000
88.306808, 25.821274, 25.516212, 0.000000, 0.000000, 0.000000, 0.000000, 0.000000, 0.000000, 620.000000
89.388634, 25.814907, 25.517843, 0.000000, 0.000000, 0.000000, 0.000000, 0.000000, 0.000000, 630.000000
90.484848, 25.808708, 25.519373, 0.000000, 0.000000, 0.000000, 0.000000, 0.000000, 0.000000, 640.000000
91.599724, 25.802671, 25.520805, 0.000000, 0.000000, 0.000000, 0.000000, 0.000000, 0.000000, 650.000000
92.737511, 25.796789, 25.522142, 0.000000, 0.000000, 0.000000, 0.000000, 0.000000, 0.000000, 660.000000
93.901863, 25.791058, 25.523388, 0.000000, 0.000000, 0.000000, 0.000000, 0.000000, 0.000000, 670.000000
95.095520, 25.785473, 25.524546, 0.000000, 0.000000, 0.000000, 0.000000, 0.000000, 0.000000, 680.000000
96.320297, 25.780027, 25.525620, 0.000000, 0.000000, 0.000000, 0.000000, 0.000000, 0.000000, 690.000000
97.577156, 25.774719, 25.526611, 0.000000, 0.000000, 0.000000, 0.000000, 0.000000, 0.000000, 700.000000
98.866402, 25.769543, 25.527525, 0.000000, 0.000000, 0.000000, 0.000000, 0.000000, 0.000000, 710.000000
100.187874, 26.194258, 25.528362, 0.000000, 0.000000, 0.000000, 0.000000, 0.000000, 0.000000, 720.000000
101.492004, 26.180363, 25.534241, 0.000000, 0.000000, 0.000000, 0.000000, 0.000000, 0.000000, 730.000000
102.777824, 26.166880, 25.539862, 0.000000, 0.000000, 0.000000, 0.000000, 0.000000, 0.000000, 740.000000
104.088425, 26.153795, 25.545233, 0.000000, 0.000000, 0.000000, 0.000000, 0.000000, 0.000000, 750.000000
105.417366, 26.141096, 25.550364, 0.000000, 0.000000, 0.000000, 0.000000, 0.000000, 0.000000, 760.000000
106.757545, 26.128769, 25.555264, 0.000000, 0.000000, 0.000000, 0.000000, 0.000000, 0.000000, 770.000000
108.103294, 26.116802, 25.559938, 0.000000, 0.000000, 0.000000, 0.000000, 0.000000, 0.000000, 780.000000
109.451576, 26.105183, 25.564398, 0.000000, 0.000000, 0.000000, 0.000000, 0.000000, 0.000000, 790.000000
110.801964, 26.093897, 25.568647, 0.000000, 0.000000, 0.000000, 0.000000, 0.000000, 0.000000, 800.000000
112.155815, 26.082935, 25.572697, 0.000000, 0.000000, 0.000000, 0.000000, 0.000000, 0.000000, 810.000000
113.514923, 26.072289, 25.576551, 0.000000, 0.000000, 0.000000, 0.000000, 0.000000, 0.000000, 820.000000
114.880020, 26.061943, 25.580219, 0.000000, 0.000000, 0.000000, 0.000000, 0.000000, 0.000000, 830.000000
116.249817, 26.051891, 25.583706, 0.000000, 0.000000, 0.000000, 0.000000, 0.000000, 0.000000, 840.000000
117.621460, 26.042122, 25.587017, 0.000000, 0.000000, 0.000000, 0.000000, 0.000000, 0.000000, 850.000000
118.992615, 26.032625, 25.590160, 0.000000, 0.000000, 0.000000, 0.000000, 0.000000, 0.000000, 860.000000
120.361801, 26.023392, 25.593142, 0.000000, 0.000000, 0.000000, 0.000000, 0.000000, 0.000000, 870.000000
121.728714, 26.014414, 25.595964, 0.000000, 0.000000, 0.000000, 0.000000, 0.000000, 0.000000, 880.000000
123.092804, 26.005682, 25.598637, 0.000000, 0.000000, 0.000000, 0.000000, 0.000000, 0.000000, 890.000000
124.453011, 25.997189, 25.601162, 0.000000, 0.000000, 0.000000, 0.000000, 0.000000, 0.000000, 900.000000
125.807663, 25.988924, 25.603546, 0.000000, 0.000000, 0.000000, 0.000000, 0.000000, 0.000000, 910.000000
127.154808, 25.980883, 25.605795, 0.000000, 0.000000, 0.000000, 0.000000, 0.000000, 0.000000, 920.000000
128.492722, 25.973055, 25.607912, 0.000000, 0.000000, 0.000000, 0.000000, 0.000000, 0.000000, 930.000000
129.820206, 25.965435, 25.609903, 0.000000, 0.000000, 0.000000, 0.000000, 0.000000, 0.000000, 940.000000
131.136734, 25.958015, 25.611773, 0.000000, 0.000000, 0.000000, 0.000000, 0.000000, 0.000000, 950.000000
132.442307, 25.950790, 25.613523, 0.000000, 0.000000, 0.000000, 0.000000, 0.000000, 0.000000, 960.000000
133.737259, 25.943752, 25.615162, 0.000000, 0.000000, 0.000000, 0.000000, 0.000000, 0.000000, 970.000000
135.022141, 25.936895, 25.616690, 0.000000, 0.000000, 0.000000, 0.000000, 0.000000, 0.000000, 980.000000
136.297562, 25.930214, 25.618113, 0.000000, 0.000000, 0.000000, 0.000000, 0.000000, 0.000000, 990.000000
137.564178, 25.923700, 25.619432, 0.000000, 0.000000, 0.000000, 0.000000, 0.000000, 0.000000, 1000.000000
138.822662, 25.917351, 25.620655, 0.000000, 0.000000, 0.000000, 0.000000, 0.000000, 0.000000, 1010.000000
140.073746, 25.911160, 25.621782, 0.000000, 0.000000, 0.000000, 0.000000, 0.000000, 0.000000, 1020.000000
141.318100, 25.905121, 25.622818, 0.000000, 0.000000, 0.000000, 0.000000, 0.000000, 0.000000, 1030.000000
142.556427, 25.899229, 25.623766, 0.000000, 0.000000, 0.000000, 0.000000, 0.000000, 0.000000, 1040.000000
143.789261, 25.893480, 25.624628, 0.000000, 0.000000, 0.000000, 0.000000, 0.000000, 0.000000, 1050.000000
145.017059, 25.887871, 25.625408, 0.000000, 0.000000, 0.000000, 0.000000, 0.000000, 0.000000, 1060.000000
146.240204, 25.882395, 25.626110, 0.000000, 0.000000, 0.000000, 0.000000, 0.000000, 0.000000, 1070.000000
147.458847, 25.877047, 25.626736, 0.000000, 0.000000, 0.000000, 0.000000, 0.000000, 0.000000, 1080.000000
148.673141, 25.871822, 25.627287, 0.000000, 0.000000, 0.000000, 0.000000, 0.000000, 0.000000, 1090.000000
149.883255, 25.866720, 25.627768, 0.000000, 0.000000, 0.000000, 0.000000, 0.000000, 0.000000, 1100.000000
151.089188, 25.861734, 25.628180, 0.000000, 0.000000, 0.000000, 0.000000, 0.000000, 0.000000, 1110.000000
152.290985, 25.856861, 25.628527, 0.000000, 0.000000, 0.000000, 0.000000, 0.000000, 0.000000, 1120.000000
153.488449, 25.852097, 25.628809, 0.000000, 0.000000, 0.000000, 0.000000, 0.000000, 0.000000, 1130.000000
154.681351, 25.847437, 25.629030, 0.000000, 0.000000, 0.000000, 0.000000, 0.000000, 0.000000, 1140.000000
155.869385, 25.842880, 25.629192, 0.000000, 0.000000, 0.000000, 0.000000, 0.000000, 0.000000, 1150.000000
157.052200, 25.838421, 25.629299, 0.000000, 0.000000, 0.000000, 0.000000, 0.000000, 0.000000, 1160.000000
158.229599, 25.834057, 25.629351, 0.000000, 0.000000, 0.000000, 0.000000, 0.000000, 0.000000, 1170.000000
159.401474, 25.829784, 25.629349, 0.000000, 0.000000, 0.000000, 0.000000, 0.000000, 0.000000, 1180.000000
160.567902, 25.825602, 25.629297, 0.000000, 0.000000, 0.000000, 0.000000, 0.000000, 0.000000, 1190.000000
161.729706, 25.821505, 25.629196, 0.000000, 0.000000, 0.000000, 0.000000, 0.000000, 0.000000, 1200.000000
162.889435, 25.817492, 25.629047, 0.000000, 0.000000, 0.000000, 0.000000, 0.000000, 0.000000, 1210.000000
164.051453, 25.813559, 25.628853, 0.000000, 0.000000, 0.000000, 0.000000, 0.000000, 0.000000, 1220.000000
165.223373, 25.809704, 25.628614, 0.000000, 0.000000, 0.000000, 0.000000, 0.000000, 0.000000, 1230.000000
166.415466, 25.805925, 25.628334, 0.000000, 0.000000, 0.000000, 0.000000, 0.000000, 0.000000, 1240.000000
167.640869, 25.802219, 25.628014, 0.000000, 0.000000, 0.000000, 0.000000, 0.000000, 0.000000, 1250.000000
168.916168, 26.348354, 25.627655, 0.000000, 0.000000, 0.000000, 0.000000, 0.000000, 0.000000, 1260.000000
170.201874, 26.903685, 25.633802, 0.000000, 0.000000, 0.000000, 0.000000, 0.000000, 0.000000, 1270.000000
171.454620, 27.464279, 25.646461, 0.000000, 0.000000, 0.000000, 0.000000, 0.000000, 0.000000, 1280.000000
172.685608, 28.026798, 25.665594, 0.000000, 0.000000, 0.000000, 0.000000, 0.000000, 0.000000, 1290.000000
173.903397, 28.588369, 25.691120, 0.000000, 0.000000, 0.000000, 0.000000, 0.000000, 0.000000, 1300.000000
175.114777, 29.146538, 25.722927, 0.000000, 0.000000, 0.000000, 0.000000, 0.000000, 0.000000, 1310.000000
176.325256, 29.699205, 25.760878, 0.000000, 0.000000, 0.000000, 0.000000, 0.000000, 0.000000, 1320.000000
177.539398, 30.244610, 25.804808, 0.000000, 0.000000, 0.000000, 0.000000, 0.000000, 0.000000, 1330.000000
178.760925, 30.781401, 25.854536, 0.000000, 0.000000, 0.000000, 0.000000, 0.000000, 0.000000, 1340.000000
179.992569, 31.308765, 25.909868, 0.000000, 0.000000, 0.000000, 0.000000, 0.000000, 0.000000, 1350.000000
181.235947, 31.826447, 25.970604, 0.000000, 0.000000, 0.000000, 0.000000, 0.000000, 0.000000, 1360.000000
182.491608, 32.334641, 26.036545, 0.000000, 0.000000, 0.000000, 0.000000, 0.000000, 0.000000, 1370.000000
183.759232, 32.833851, 26.107494, 0.000000, 0.000000, 0.000000, 0.000000, 0.000000, 0.000000, 1380.000000
185.037933, 32.693489, 26.183266, 0.000000, 0.000000, 0.000000, 0.000000, 0.000000, 0.000000, 1390.000000
186.389053, 32.557636, 26.256170, 0.000000, 0.000000, 0.000000, 0.000000, 0.000000, 0.000000, 1400.000000
187.903427, 32.426140, 26.326309, 0.000000, 0.000000, 0.000000, 0.000000, 0.000000, 0.000000, 1410.000000
189.638153, 32.298851, 26.393776, 0.000000, 0.000000, 0.000000, 0.000000, 0.000000, 0.000000, 1420.000000
191.677811, 32.175629, 26.458662, 0.000000, 0.000000, 0.000000, 0.000000, 0.000000, 0.000000, 1430.000000
194.151215, 32.056332, 26.521059, 0.000000, 0.000000, 0.000000, 0.000000, 0.000000, 0.000000, 1440.000000
197.254135, 31.940825, 26.581051, 0.000000, 0.000000, 0.000000, 0.000000, 0.000000, 0.000000, 1450.000000
201.224152, 31.828979, 26.638721, 0.000000, 0.000000, 0.000000, 0.000000, 0.000000, 0.000000, 1460.000000
206.033447, 31.720673, 26.694151, 0.000000, 0.000000, 0.000000, 0.000000, 0.000000, 0.000000, 1470.000000
210.887604, 31.615782, 26.747417, 0.000000, 0.000000, 0.000000, 0.000000, 0.000000, 0.000000, 1480.000000
214.965500, 31.514191, 26.798595, 0.000000, 0.000000, 0.000000, 0.000000, 0.000000, 0.000000, 1490.000000
218.216797, 31.415789, 26.847755, 0.000000, 0.000000, 0.000000, 0.000000, 0.000000, 0.000000, 1500.000000
220.879517, 31.320465, 26.894970, 0.000000, 0.000000, 0.000000, 0.000000, 0.000000, 0.000000, 1510.000000
223.153763, 31.228117, 26.940304, 0.000000, 0.000000, 0.000000, 0.000000, 0.000000, 0.000000, 1520.000000
225.170959, 31.138641, 26.983824, 0.000000, 0.000000, 0.000000, 0.000000, 0.000000, 0.000000, 1530.000000
227.016434, 31.051941, 27.025593, 0.000000, 0.000000, 0.000000, 0.000000, 0.000000, 0.000000, 1540.000000
228.747543, 30.967920, 27.065670, 0.000000, 0.000000, 0.000000, 0.000000, 0.000000, 0.000000, 1550.000000
230.404404, 30.886490, 27.104115, 0.000000, 0.000000, 0.000000, 0.000000, 0.000000, 0.000000, 1560.000000
232.015381, 30.807562, 27.140984, 0.000000, 0.000000, 0.000000, 0.000000, 0.000000, 0.000000, 1570.000000
233.600189, 30.731049, 27.176332, 0.000000, 0.000000, 0.000000, 0.000000, 0.000000, 0.000000, 1580.000000
235.172195, 30.656870, 27.210213, 0.000000, 0.000000, 0.000000, 0.000000, 0.000000, 0.000000, 1590.000000
236.740326, 30.584948, 27.242676, 0.000000, 0.000000, 0.000000, 0.000000, 0.000000, 0.000000, 1600.000000
238.309845, 30.515203, 27.273769, 0.000000, 0.000000, 0.000000, 0.000000, 0.000000, 0.000000, 1610.000000
239.884735, 30.447563, 27.303543, 0.000000, 0.000000, 0.000000, 0.000000, 0.000000, 0.000000, 1620.000000
241.469238, 30.381956, 27.332043, 0.000000, 0.000000, 0.000000, 0.000000, 0.000000, 0.000000, 1630.000000
243.068222, 30.318312, 27.359310, 0.000000, 0.000000, 0.000000, 0.000000, 0.000000, 0.000000, 1640.000000
244.680435, 30.256565, 27.385391, 0.000000, 0.000000, 0.000000, 0.000000, 0.000000, 0.000000, 1650.000000
